,angle,torque
0,17.13,13.6
1,17.12,13.8
2,17.1,14.4
3,17.09,14.5
4,17.08,14.7
5,17.07,14.8
6,17.05,15.1
7,17.03,15.6
8,17.0,16.1
9,16.98,16.7
10,16.96,17.0
11,16.94,17.5
12,16.92,17.9
13,16.91,18.3
14,16.88,18.8
15,16.86,19.2
16,16.85,19.7
17,16.84,19.9
18,16.84,20.0
19,16.84,20.1
20,16.83,20.3
21,16.82,20.6
22,16.8,21.1
23,16.79,21.5
24,16.77,21.8
25,16.75,22.3
26,16.74,22.7
27,16.72,23.3
28,16.71,23.8
29,16.69,24.3
30,16.68,24.6
31,16.67,25.0
32,16.66,25.3
33,16.65,25.5
34,16.64,25.8
35,16.63,26.1
36,16.62,26.5
37,16.6,26.8
38,16.59,27.3
39,16.58,27.6
40,16.57,28.0
41,16.55,28.5
42,16.54,28.9
43,16.53,29.2
44,16.52,29.6
45,16.51,29.8
46,16.51,30.1
47,16.5,30.2
48,16.5,30.2
49,16.5,30.3
50,16.49,30.5
51,16.49,30.7
52,16.48,31.0
53,16.47,31.3
54,16.47,31.5
55,16.46,31.7
56,16.46,31.9
57,16.45,32.1
58,16.44,32.4
59,16.44,32.5
60,16.44,32.6
61,16.44,32.7
62,16.44,32.7
63,16.44,32.7
64,16.43,32.9
65,16.43,33.1
66,16.42,33.4
67,16.42,33.7
68,16.41,34.0
69,16.4,34.2
70,16.4,34.4
71,16.39,34.6
72,16.38,35.0
73,16.37,35.2
74,16.36,35.6
75,16.35,35.9
76,16.34,36.2
77,16.32,36.7
78,16.3,37.3
79,16.29,38.0
80,16.27,38.5
81,16.26,39.0
82,16.24,39.3
83,16.23,39.7
84,16.22,40.1
85,16.21,40.5
86,16.2,40.8
87,16.2,40.9
88,16.19,41.2
89,16.18,41.5
90,16.17,41.9
91,16.16,42.2
92,16.15,42.5
93,16.15,42.7
94,16.14,43.0
95,16.13,43.3
96,16.11,43.8
97,16.1,44.1
98,16.1,44.3
99,16.09,44.4
100,16.09,44.4
101,16.09,44.7
102,16.08,45.1
103,16.07,45.3
104,16.07,45.5
105,16.06,45.7
106,16.05,46.0
107,16.04,46.3
108,16.03,46.6
109,16.03,46.8
110,16.02,47.2
111,16.01,47.4
112,16.0,47.7
113,15.99,48.1
114,15.98,48.3
115,15.98,48.6
116,15.98,48.7
117,15.98,48.9
118,15.97,49.1
119,15.96,49.3
120,15.95,49.6
121,15.95,49.9
122,15.93,50.1
123,15.92,50.3
124,15.9,47.6
125,15.82,44.9
126,15.74,45.2
127,15.63,45.2
128,15.51,45.4
129,15.4,45.6
130,15.32,45.9
131,15.25,46.5
132,15.22,46.8
133,15.21,46.9
134,15.22,46.3
135,15.25,44.5
136,15.26,43.5
137,15.26,43.1
138,15.25,43.4
139,15.24,44.4
140,15.22,45.5
141,15.21,46.5
142,15.2,47.4
143,15.2,47.6
144,15.2,47.6
145,15.2,47.5
146,15.2,47.6
147,15.19,47.9
148,15.18,48.6
149,15.17,49.0
150,15.16,49.3
151,15.15,49.7
152,15.13,50.1
153,15.13,50.3
154,15.12,50.5
155,15.11,50.7
156,15.1,50.7
157,15.1,50.7
158,15.1,50.6
159,15.09,50.7
160,15.09,50.8
161,15.09,50.9
162,15.09,51.2
163,15.08,51.4
164,15.07,51.9
165,15.05,52.3
166,15.04,52.8
167,15.02,52.7
168,15.0,52.2
169,14.96,51.6
170,14.9,51.5
171,14.87,51.4
172,14.81,51.3
173,14.76,51.3
174,14.69,51.4
175,14.62,51.5
176,14.56,51.8
177,14.51,52.1
178,14.47,52.5
179,14.45,52.8
180,14.43,53.0
181,14.42,53.1
182,14.41,53.1
183,14.4,53.5
184,14.39,53.9
185,14.38,54.3
186,14.38,54.7
187,14.37,55.0
188,14.35,55.3
189,14.34,55.7
190,14.33,56.0
191,14.32,56.2
192,14.32,56.2
193,14.32,56.3
194,14.31,56.5
195,14.3,56.6
196,14.3,56.8
197,14.3,56.9
198,14.3,56.8
199,14.3,56.7
200,14.3,56.6
201,14.29,56.7
202,14.29,56.9
203,14.29,57.0
204,14.29,57.0
205,14.29,56.9
206,14.29,56.9
207,14.29,56.9
208,14.29,56.8
209,14.29,56.8
210,14.29,56.5
211,14.3,56.3
212,14.3,56.3
213,14.29,56.5
214,14.29,56.7
215,14.29,56.7
216,14.3,56.4
217,14.3,56.0
218,14.3,56.0
219,14.29,56.3
220,14.29,56.5
221,14.29,56.6
222,14.3,56.4
223,14.3,56.1
224,14.3,55.8
225,14.3,55.6
226,14.3,55.4
227,14.3,55.3
228,14.3,55.1
229,14.3,54.9
230,14.31,54.6
231,14.32,54.1
232,14.32,53.7
233,14.32,53.5
234,14.32,53.6
235,14.32,53.7
236,14.32,53.7
237,14.32,53.6
238,14.32,53.7
239,14.32,53.8
240,14.32,53.7
241,14.32,53.6
242,14.32,53.2
243,14.32,53.1
244,14.32,53.3
245,14.32,53.4
246,14.32,53.5
247,14.32,53.3
248,14.32,53.2
249,14.32,53.0
250,14.32,53.0
251,14.31,53.2
252,14.3,53.6
253,14.3,54.3
254,14.3,54.6
255,14.3,54.6
256,14.3,54.4
257,14.3,54.2
258,14.3,54.0
259,14.3,53.9
260,14.31,53.5
261,14.32,53.0
262,14.34,51.1
263,14.36,49.9
264,14.39,48.3
265,14.42,46.5
266,14.45,44.5
267,14.5,42.1
268,14.55,39.0
269,14.61,36.7
270,14.68,33.3
271,14.75,30.6
272,14.82,27.8
273,14.88,25.5
274,14.96,23.6
275,15.07,20.8
276,15.16,18.6
277,15.22,16.6
278,15.33,14.8
279,15.4,12.7
280,15.49,11.0
281,15.58,9.7
282,15.67,8.0
283,15.75,6.9
284,15.83,5.5
285,15.91,4.5
286,15.96,3.7
287,16.02,3.2
288,16.08,2.7
289,16.13,2.2
290,16.18,1.9
291,16.22,1.5
292,16.26,1.4
293,16.29,1.2
294,16.32,1.1
295,16.34,0.9
296,16.36,0.9
297,16.38,0.8
298,16.39,0.7
299,16.41,0.7
300,16.41,0.6
301,16.42,0.6
302,16.43,0.6
303,16.44,0.6
304,16.45,0.5
305,16.46,0.5
306,16.46,0.5
307,16.48,0.4
308,16.5,0.4
309,16.52,0.4
310,16.55,0.4
311,16.58,0.4
312,16.62,0.3
313,16.65,0.3
314,16.69,0.3
315,16.72,0.3
316,16.75,0.3
317,16.81,0.3
318,16.84,0.3
319,16.88,0.3
320,16.93,0.3
321,16.97,0.2
322,17.02,0.2
323,17.06,0.2
324,17.1,0.2
325,17.14,0.2
326,17.17,0.2
327,17.22,0.2
328,17.25,0.2
329,17.28,0.2
330,17.31,0.2
331,17.35,0.2
332,17.43,0.2
333,17.46,0.2
334,17.5,0.2
335,17.53,0.2
336,17.56,0.2
337,17.62,0.2
338,17.65,0.2
339,17.7,0.2
340,17.76,0.2
341,17.83,0.2
342,17.89,0.2
343,17.96,0.2
344,18.03,0.2
345,18.11,0.2
346,18.22,0.2
347,18.35,0.2
348,18.39,0.2
349,18.47,0.1
350,18.55,0.1
351,18.61,0.1
352,18.82,0.2
353,18.79,0.2
354,18.74,0.2
355,18.67,0.2
356,18.24,0.2
357,18.22,0.2
358,18.23,0.2
359,18.24,0.2
360,18.27,0.2
361,18.29,0.2
362,18.31,0.2
363,18.31,0.2
364,18.32,0.2
365,18.34,0.2
366,18.37,0.2
367,18.41,0.2
368,18.44,0.2
369,18.45,0.2
370,18.43,0.2
371,18.4,0.2
372,18.33,0.2
373,18.23,0.2
374,18.12,0.2
375,18.03,0.3
376,17.98,0.4
377,17.93,0.5
378,17.89,0.5
379,17.87,0.5
380,17.84,0.6
381,17.82,0.5
382,17.8,0.5
383,17.8,0.4
384,17.8,0.3
385,17.81,0.3
386,17.83,0.2
387,17.87,0.2
388,17.95,0.2
389,5.2,0.0
390,5.2,0.0
391,5.43,0.0
392,5.73,0.0
393,6.04,0.0
394,6.28,0.0
395,6.61,0.0
396,6.95,0.0
397,7.47,0.0
398,7.64,0.0
399,8.01,0.0
400,8.39,0.0
401,8.76,0.0
402,11.71,0.0
403,11.71,0.0
404,11.99,0.0
405,13.53,0.0
406,13.51,0.0
407,13.39,0.0
408,13.41,0.0
409,13.46,0.0
410,13.51,0.0
411,13.57,0.0
412,13.63,0.0
413,13.75,0.0
414,13.75,0.0
