,angle,torque,diff
0,63.7,19.1,-29.999999999998817
1,63.67,20.0,-29.999999999998817
2,63.64,20.9,-29.999999999998817
3,63.61,21.8,-29.999999999998934
4,63.57,23.3,-37.5000000000008
5,63.53,24.6,-32.50000000000071
6,63.49,25.7,-27.500000000000533
7,63.46,27.2,-49.9999999999981
8,63.43,28.1,-29.999999999998934
9,63.4,29.4,-43.333333333331595
10,63.28,34.7,-44.166666666667645
11,63.25,35.9,-39.999999999998344
12,63.22,36.9,-33.33333333333207
13,63.2,37.7,-40.00000000000817
14,63.18,38.8,-54.99999999999112
15,63.16,39.3,-24.999999999996092
16,63.15,40.1,-80.00000000001634
17,63.13,40.7,-30.00000000000604
18,63.12,41.6,-89.99999999995381
19,63.11,42.2,-60.00000000001208
20,63.1,42.6,-40.000000000007816
21,63.08,43.2,-29.99999999999538
22,63.07,44.0,-80.00000000001563
23,63.06,44.4,-40.000000000007816
24,63.04,45.0,-29.99999999999538
25,63.03,45.5,-50.00000000000995
26,63.02,45.8,-30.000000000005684
27,63.01,46.5,-69.99999999996447
28,63.0,47.0,-50.00000000000995
29,62.99,47.7,-70.00000000001421
30,62.98,48.3,-59.999999999968736
31,62.97,48.6,-30.000000000006395
32,62.95,49.3,-35.00000000000675
33,62.94,49.8,-49.99999999997442
34,62.93,50.4,-60.00000000001208
35,62.92,50.8,-40.000000000007816
36,62.91,51.3,-49.99999999997442
37,62.91,51.7,40.00000000000057
38,62.9,52.0,-30.000000000005684
39,62.9,52.2,20.000000000000284
40,62.89,52.5,-30.000000000005684
41,62.89,52.8,29.999999999999716
42,62.88,53.2,-40.00000000000853
43,62.88,53.5,29.999999999999716
44,62.87,53.8,-29.999999999984368
45,62.87,54.0,20.000000000000284
46,62.87,54.1,10.000000000000142
47,62.87,54.2,10.000000000000142
48,62.87,54.3,9.999999999999432
49,62.86,54.5,-20.000000000004263
50,62.86,54.7,20.000000000000284
51,62.86,54.8,9.999999999999432
52,62.86,54.9,10.000000000000142
53,62.86,55.1,20.000000000000284
54,62.85,55.4,-30.000000000005684
55,62.85,55.7,30.000000000000426
56,62.85,55.9,19.999999999999574
57,62.85,55.9,0.0
58,62.85,55.9,0.0
59,62.85,56.0,10.000000000000142
60,62.85,56.3,29.999999999999716
61,62.85,56.6,30.000000000000426
62,62.84,57.0,-40.000000000007816
63,62.84,57.3,29.999999999999716
64,62.83,57.8,-49.99999999997442
65,62.82,58.1,-30.000000000006395
66,62.82,58.4,29.999999999999716
67,62.81,58.8,-40.000000000007816
68,62.8,59.1,-29.99999999998508
69,62.8,59.5,39.99999999999986
70,62.79,59.8,-30.000000000005684
71,62.79,60.1,30.000000000000426
72,62.79,60.2,10.000000000000142
73,62.78,60.9,-70.0000000000135
74,62.77,61.4,-50.00000000000995
75,62.77,61.8,39.99999999999986
76,62.76,62.4,-59.99999999996945
77,62.75,62.8,-40.000000000007816
78,62.75,63.1,30.000000000000426
79,62.75,63.5,39.99999999999986
80,62.74,63.7,-20.000000000004263
81,62.73,64.1,-39.999999999978684
82,62.73,64.5,40.00000000000057
83,62.73,64.8,29.999999999999716
84,62.73,64.9,10.000000000000853
85,62.73,65.0,9.999999999999432
86,62.73,65.2,20.000000000000284
87,62.72,65.5,-30.000000000005684
88,62.72,66.0,50.0
89,62.71,66.3,-30.000000000005684
90,62.71,66.5,20.000000000000284
91,62.71,66.7,20.000000000000284
92,62.71,66.9,20.000000000000284
93,62.71,67.1,19.999999999998863
94,62.71,67.3,20.000000000000284
95,62.7,67.5,-20.000000000004263
96,62.7,67.7,20.000000000000284
97,62.7,68.0,29.999999999999716
98,62.69,68.2,-19.999999999990052
99,62.69,68.5,29.999999999999716
100,62.69,68.7,20.000000000000284
101,62.69,69.2,50.0
102,62.68,69.4,-20.000000000004263
103,62.68,69.7,29.999999999999716
104,62.68,69.9,20.000000000000284
105,62.67,70.1,-20.000000000002842
106,62.67,70.3,20.000000000000284
107,62.67,70.5,20.000000000000284
108,62.67,70.7,20.000000000000284
109,62.67,70.8,9.999999999999432
110,62.67,71.1,29.999999999999716
111,62.67,71.3,20.000000000000284
112,62.67,71.7,40.00000000000057
113,62.66,72.0,-29.999999999984368
114,62.65,72.6,-60.00000000001137
115,62.65,72.9,30.000000000001137
116,62.65,73.2,29.999999999999716
117,62.64,73.3,-10.000000000001421
118,62.64,73.4,10.000000000000853
119,62.64,73.7,29.999999999999716
120,62.64,74.0,29.999999999999716
121,62.63,74.3,-30.000000000005684
122,62.63,74.4,10.000000000000853
123,62.63,74.6,19.999999999998863
124,62.63,74.8,20.000000000000284
125,62.63,75.0,20.000000000000284
126,62.63,75.0,0.0
127,62.63,75.1,9.999999999999432
128,62.63,75.2,10.000000000000853
129,62.63,75.4,20.000000000000284
130,62.63,75.5,9.999999999999432
131,62.63,75.5,0.0
132,62.63,75.6,9.999999999999432
133,62.62,75.7,-9.999999999995737
134,62.62,75.9,20.000000000000284
135,62.62,75.8,-10.000000000000853
136,62.62,75.7,-9.999999999999432
137,62.62,75.8,9.999999999999432
138,62.62,76.1,29.999999999999716
139,62.62,76.3,20.000000000000284
140,62.62,76.4,10.000000000000853
141,62.62,76.6,19.999999999998863
142,62.62,76.7,10.000000000000853
143,62.62,77.0,29.999999999999716
144,62.62,77.3,29.999999999999716
145,62.62,77.8,50.0
146,62.62,78.1,29.999999999999716
147,62.61,78.4,-30.000000000007105
148,62.61,78.7,29.999999999999716
149,62.61,78.8,9.999999999999432
150,62.61,78.8,0.0
151,62.61,79.0,20.000000000000284
152,62.6,79.1,-10.000000000001421
153,62.6,79.1,0.0
154,62.6,79.1,0.0
155,62.6,79.2,10.000000000000853
156,62.6,79.2,0.0
157,62.6,79.5,29.999999999999716
158,62.6,79.7,20.000000000000284
159,62.6,80.0,29.999999999999716
160,62.6,80.3,29.999999999999716
161,62.6,80.5,20.000000000000284
162,62.6,80.7,20.000000000000284
163,62.6,80.7,0.0
164,62.6,80.6,-10.000000000000853
165,62.6,80.7,10.000000000000853
166,62.6,81.0,29.999999999999716
167,62.6,81.0,0.0
168,62.6,81.2,20.000000000000284
169,62.6,81.3,9.999999999999432
170,62.6,81.3,0.0
171,62.6,81.4,10.000000000000853
172,62.6,81.4,0.0
173,62.6,81.4,0.0
174,62.6,81.5,9.999999999999432
175,62.6,81.7,20.000000000000284
176,62.6,82.0,29.999999999999716
177,62.6,82.2,20.000000000000284
178,62.6,82.2,0.0
179,62.6,82.1,-10.000000000000853
180,62.6,82.1,0.0
181,62.6,82.1,0.0
182,62.6,82.2,10.000000000000853
183,62.6,82.3,9.999999999999432
184,62.6,82.3,0.0
185,62.6,82.5,20.000000000000284
186,62.6,82.7,20.000000000000284
187,62.6,82.8,9.999999999999432
188,62.6,82.9,10.000000000000853
189,62.6,83.0,9.999999999999432
190,62.6,83.1,9.999999999999432
191,62.6,83.0,-9.999999999999432
192,62.6,82.8,-20.000000000000284
193,62.6,82.8,0.0
194,62.6,83.1,29.999999999999716
195,62.6,83.7,60.00000000000085
196,62.6,84.0,29.999999999999716
197,62.6,83.9,-9.999999999999432
198,62.6,83.7,-20.000000000000284
199,62.6,83.8,9.999999999999432
200,62.6,83.9,10.000000000000853
201,62.6,84.3,39.99999999999915
202,62.6,84.8,50.0
203,62.6,85.1,29.999999999999716
204,62.6,85.1,0.0
205,62.59,85.4,-30.000000000007105
206,62.59,85.5,9.999999999999432
207,62.59,85.8,29.999999999999716
208,62.59,86.0,20.000000000000284
209,62.59,86.0,0.0
210,62.59,86.1,9.999999999999432
211,62.59,86.2,10.000000000000853
212,62.59,86.4,20.000000000000284
213,62.59,86.5,9.999999999999432
214,62.59,86.3,-20.000000000000284
215,62.59,86.3,0.0
216,62.59,86.5,20.000000000000284
217,62.59,86.9,40.00000000000057
218,62.59,87.4,50.0
219,62.58,87.6,-19.99999999998863
220,62.58,87.8,20.000000000000284
221,62.58,88.0,20.000000000000284
222,62.58,88.3,29.999999999999716
223,62.58,88.5,20.000000000000284
224,62.57,88.9,-40.00000000000853
225,62.56,89.4,-50.00000000000995
226,62.55,89.9,-49.99999999997442
227,62.55,90.4,50.0
228,62.55,90.5,9.999999999999432
229,62.55,90.6,9.999999999999432
230,62.54,90.7,-10.000000000002842
231,62.54,91.0,29.999999999999716
232,62.54,91.1,9.999999999999432
233,62.54,91.1,0.0
234,62.54,91.1,0.0
235,62.53,91.4,-30.000000000007105
236,62.53,92.0,59.99999999999943
237,62.53,92.2,20.000000000000284
238,62.53,92.0,-20.000000000000284
239,62.53,91.9,-9.999999999999432
240,62.53,92.1,19.999999999998863
241,62.53,92.2,10.000000000000853
242,62.52,92.2,-0.0
243,62.52,92.3,9.999999999999432
244,62.52,92.5,20.000000000000284
245,62.52,92.8,29.999999999999716
246,62.52,93.0,20.000000000000284
247,62.52,93.0,0.0
248,62.52,93.0,0.0
249,62.52,93.2,20.000000000000284
250,62.51,93.5,-29.999999999984368
251,62.51,94.0,50.0
252,62.51,94.4,40.00000000000057
253,62.5,94.6,-20.000000000002842
254,62.49,95.1,-50.00000000000995
255,62.48,95.7,-59.99999999997016
256,62.47,96.5,-80.00000000001563
257,62.47,96.7,20.000000000000284
258,62.47,96.6,-10.000000000000853
259,62.46,96.8,-20.000000000004263
260,62.45,97.3,-50.00000000000995
261,62.45,97.5,20.000000000000284
262,62.45,97.6,9.999999999999432
263,62.45,97.4,-19.999999999998863
264,62.44,97.6,-19.99999999998863
265,62.44,98.2,60.00000000000085
266,62.44,98.6,39.99999999999915
267,62.44,98.3,-29.999999999999716
268,62.44,97.8,-50.0
269,62.44,97.5,-29.999999999999716
270,62.45,96.9,-59.999999999968736
271,62.45,96.7,-20.000000000000284
272,62.46,96.0,-70.00000000001421
273,62.48,94.8,-60.00000000001208
274,62.51,92.3,-83.33333333333017
275,62.53,90.2,-104.9999999999833
276,62.56,88.4,-59.999999999997634
277,62.6,84.9,-87.50000000000186
278,62.66,81.7,-53.33333333333768
279,62.72,75.4,-104.99999999999598
280,62.76,72.6,-70.00000000000178
281,62.8,68.8,-95.00000000000196
282,62.87,65.2,-51.42857142857114
283,62.94,60.2,-71.42857142857113
284,63.05,54.3,-53.63636363636397
285,63.12,51.6,-38.571428571428356
286,63.19,47.5,-58.571428571428356
287,63.32,43.0,-34.61538461538393
288,63.41,38.4,-51.111111111113225
289,63.54,35.0,-26.153846153845627
290,63.67,30.0,-38.46153846153771
291,63.8,26.7,-25.38461538461628
292,63.93,21.9,-36.9230769230762
293,64.06,19.5,-18.461538461538087
294,64.19,15.7,-29.23076923077026
295,64.33,12.8,-20.71428571428562
296,64.42,10.4,-26.66666666666566
297,64.58,7.8,-16.250000000000348
298,64.71,5.9,-14.615384615385123
299,64.84,4.6,-9.999999999999263
300,64.94,3.4,-12.00000000000068
301,65.08,2.2,-8.571428571428534
302,65.22,1.5,-4.999999999999981
303,65.36,0.8,-4.99999999999998
304,65.51,0.5,-1.9999999999999245
305,65.63,0.2,-2.500000000000201
306,65.78,0.1,-0.6666666666666414
307,65.93,0.0,-0.6666666666666414
308,66.07,0.1,0.7142857142857839
309,66.22,0.1,0.0
310,66.39,0.1,0.0
311,66.5,0.1,0.0
312,66.64,0.1,0.0
313,66.78,0.1,0.0
314,66.88,0.1,0.0
315,67.02,0.1,0.0
316,67.16,0.2,0.7142857142857114
317,67.3,0.2,0.0
318,67.44,0.2,0.0
319,67.58,0.2,0.0
320,67.72,0.2,0.0
321,67.9,0.2,0.0
322,67.96,0.2,0.0
323,68.06,0.2,0.0
324,68.13,0.1,-1.4285714285715678
325,68.27,0.1,0.0
326,68.32,0.1,0.0
327,68.38,0.1,0.0
328,68.43,0.1,0.0
329,68.48,0.1,0.0
330,68.51,0.1,0.0
331,68.55,0.1,0.0
332,68.57,0.1,0.0
333,68.59,0.1,0.0
334,68.59,0.1,0.0
335,68.59,0.1,0.0
336,68.59,0.0,-10.0
337,68.58,0.0,-0.0
338,68.56,0.0,-0.0
339,68.54,0.1,-5.000000000000995
340,68.51,0.1,-0.0
341,68.49,0.1,-0.0
342,68.47,0.1,-0.0
343,68.44,0.2,-3.3333333333332074
344,68.43,0.2,-0.0
345,68.41,0.2,-0.0
346,68.38,0.2,-0.0
347,68.36,0.2,-0.0
348,68.35,0.2,-0.0
349,68.33,0.2,-0.0
350,68.32,0.2,-0.0
351,68.31,0.2,-0.0
352,68.31,0.2,0.0
353,68.31,0.2,0.0
354,68.31,0.2,0.0
355,68.31,0.2,0.0
356,68.31,0.1,-10.0
357,68.32,0.1,0.0
358,68.32,0.1,0.0
359,68.32,0.1,0.0
360,68.32,0.1,0.0
361,67.15,0.5,-0.34188034188034555
362,67.15,0.5,0.0
363,67.14,0.5,-0.0
364,67.13,0.5,-0.0
365,67.12,0.5,-0.0
366,67.12,0.5,0.0
367,67.02,0.4,0.9999999999999145
368,67.02,0.5,9.999999999999998
369,67.01,0.4,10.000000000009093
370,66.29,0.6,-0.2777777777777782
371,66.29,0.6,0.0
372,66.21,0.6,-0.0
373,66.21,0.6,0.0
374,66.2,0.6,-0.0
375,66.19,0.6,-0.0
376,66.18,0.6,-0.0
377,66.16,0.6,-0.0
378,66.16,0.6,0.0
379,66.15,0.6,-0.0
380,66.15,0.6,0.0
381,66.15,0.6,0.0
382,66.15,0.6,0.0
383,66.16,0.6,0.0
