,angle,torque
0,73.39,15.8
1,73.4,16.2
2,73.42,16.6
3,73.44,17.1
4,73.46,17.5
5,73.48,17.9
6,73.5,18.6
7,73.52,19.0
8,73.53,19.6
9,73.57,20.2
10,73.58,20.8
11,73.61,21.3
12,73.63,22.2
13,73.65,22.6
14,73.67,23.4
15,73.69,23.7
16,73.7,24.2
17,73.72,24.6
18,73.74,25.1
19,73.75,25.6
20,73.76,26.0
21,73.78,26.4
22,73.8,26.9
23,73.82,27.6
24,73.84,28.3
25,73.86,28.8
26,73.87,29.3
27,73.88,29.7
28,73.89,30.1
29,73.91,30.5
30,73.93,31.1
31,73.95,31.7
32,73.97,32.6
33,73.99,33.2
34,74.01,33.8
35,74.02,34.2
36,74.02,34.4
37,74.02,34.5
38,74.03,34.7
39,74.04,35.1
40,74.05,35.4
41,74.06,35.8
42,74.07,36.1
43,74.08,36.5
44,74.09,36.9
45,74.11,37.3
46,74.12,37.8
47,74.13,38.1
48,74.13,38.4
49,74.14,38.5
50,74.14,38.7
51,74.15,38.9
52,74.17,39.3
53,74.18,39.9
54,74.19,40.2
55,74.2,40.6
56,74.21,40.8
57,74.21,41.0
58,74.21,41.1
59,74.22,41.5
60,74.23,41.7
61,74.24,42.1
62,74.25,42.4
63,74.25,42.5
64,74.26,42.7
65,74.27,42.9
66,74.28,43.2
67,74.28,43.4
68,74.29,43.7
69,74.29,43.8
70,74.3,44.0
71,74.3,44.2
72,74.31,44.4
73,74.32,44.7
74,74.33,45.0
75,74.33,45.2
76,74.34,45.4
77,74.34,45.6
78,74.35,45.7
79,74.35,45.8
80,74.36,46.0
81,74.36,46.2
82,74.37,46.4
83,74.37,46.6
84,74.37,46.8
85,74.38,47.0
86,74.39,47.1
87,74.4,47.5
88,74.41,48.0
89,74.42,48.3
90,74.43,48.7
91,74.43,48.8
92,74.44,49.0
93,74.45,49.2
94,74.45,49.5
95,74.46,49.6
96,74.46,49.8
97,74.46,49.8
98,74.47,49.8
99,74.47,50.0
100,74.48,50.3
101,74.49,50.7
102,74.49,50.9
103,74.49,50.9
104,74.5,51.0
105,74.5,51.2
106,74.5,51.4
107,74.51,51.6
108,74.51,51.8
109,74.52,51.9
110,74.52,52.0
111,74.52,52.2
112,74.53,52.3
113,74.53,52.5
114,74.53,52.6
115,74.53,52.7
116,74.53,52.7
117,74.53,52.8
118,74.53,53.0
119,74.53,53.1
120,74.53,53.3
121,74.54,53.4
122,74.54,53.5
123,74.54,53.5
124,74.54,53.5
125,74.54,53.5
126,74.54,53.6
127,74.54,53.9
128,74.54,54.2
129,74.54,54.3
130,74.54,54.4
131,74.54,54.5
132,74.55,54.7
133,74.55,54.8
134,74.55,55.1
135,74.56,55.3
136,74.56,55.3
137,74.56,55.3
138,74.56,55.4
139,74.57,55.8
140,74.59,56.4
141,74.6,57.0
142,74.61,57.5
143,74.62,57.7
144,74.63,57.9
145,74.63,58.0
146,74.63,58.0
147,74.63,57.9
148,74.63,57.7
149,74.63,57.6
150,74.63,57.5
151,74.63,57.5
152,74.63,57.5
153,74.63,57.7
154,74.63,57.9
155,74.63,57.9
156,74.63,57.8
157,74.63,57.9
158,74.64,58.0
159,74.64,58.3
160,74.65,58.6
161,74.65,58.8
162,74.66,59.1
163,74.66,59.4
164,74.67,59.6
165,74.67,59.8
166,74.68,60.0
167,74.68,60.3
168,74.69,60.5
169,74.69,60.8
170,74.7,61.0
171,74.71,61.2
172,74.72,61.6
173,74.73,62.1
174,74.74,62.3
175,74.75,62.4
176,74.75,62.5
177,74.76,62.6
178,74.76,62.7
179,74.76,62.8
180,74.76,62.8
181,74.76,62.9
182,74.76,63.0
183,74.76,63.2
184,74.77,63.4
185,74.78,63.8
186,74.78,64.0
187,74.78,64.2
188,74.78,64.4
189,74.79,64.6
190,74.79,64.8
191,74.79,64.8
192,74.79,64.9
193,74.79,65.0
194,74.8,65.2
195,74.81,65.4
196,74.81,65.5
197,74.86,62.4
198,74.93,58.6
199,75.05,59.2
200,75.24,59.9
201,75.36,60.5
202,75.43,60.9
203,75.51,61.1
204,75.52,60.9
205,75.52,60.2
206,75.51,59.0
207,75.5,57.7
208,75.5,57.4
209,75.51,58.2
210,75.53,59.3
211,75.56,61.2
212,75.59,62.6
213,75.62,63.3
214,75.64,63.4
215,75.66,63.5
216,75.68,63.8
217,75.7,63.9
218,75.71,64.2
219,75.73,64.2
220,75.74,64.3
221,75.75,64.5
222,75.77,65.0
223,75.8,65.6
224,75.81,65.8
225,75.84,66.2
226,75.87,66.3
227,75.89,66.4
228,75.91,66.7
229,75.94,66.8
230,75.97,66.9
231,75.99,66.9
232,76.01,67.1
233,76.04,67.4
234,76.07,67.8
235,76.09,67.9
236,76.11,67.9
237,76.13,67.9
238,76.14,68.0
239,76.16,68.3
240,76.19,68.8
241,76.2,69.2
242,76.23,69.3
243,76.25,69.2
244,76.26,69.2
245,76.29,69.4
246,76.3,69.7
247,76.31,69.8
248,76.32,69.7
249,76.33,69.6
250,76.34,69.7
251,76.35,70.0
252,76.37,70.5
253,76.38,70.8
254,76.39,70.8
255,76.4,70.9
256,76.42,71.2
257,76.43,71.6
258,76.44,71.5
259,76.45,71.3
260,76.46,71.3
261,76.47,71.6
262,76.49,72.0
263,76.5,72.2
264,76.5,72.1
265,76.5,72.0
266,76.51,72.3
267,76.53,72.8
268,76.55,73.1
269,76.56,73.1
270,76.56,72.7
271,76.56,72.1
272,76.57,72.2
273,76.58,72.6
274,76.58,72.7
275,76.58,72.4
276,76.57,71.6
277,76.57,71.1
278,76.57,70.9
279,76.57,70.9
280,76.57,70.9
281,76.57,70.6
282,76.55,69.8
283,76.54,68.5
284,76.52,66.9
285,76.49,65.4
286,76.47,63.9
287,76.43,61.1
288,76.39,58.7
289,76.33,54.4
290,76.26,51.1
291,76.19,47.3
292,76.11,42.7
293,76.02,39.6
294,75.94,35.5
295,75.87,33.2
296,75.8,30.2
297,75.72,27.9
298,75.63,25.2
299,75.57,23.5
300,75.5,21.5
301,75.41,19.4
302,75.31,17.6
303,75.19,14.9
304,75.07,13.0
305,74.94,10.4
306,74.82,8.8
307,74.71,6.8
308,74.6,5.4
309,74.49,4.0
310,74.39,2.9
311,74.28,1.8
312,74.2,1.1
313,74.09,0.7
314,73.95,0.3
315,73.86,0.2
316,73.74,0.2
317,73.6,0.2
318,73.45,0.2
319,73.29,0.2
320,73.16,0.2
321,72.92,0.2
322,72.72,0.2
323,72.57,0.2
324,72.37,0.2
325,72.09,0.2
326,71.91,0.2
327,71.65,0.2
328,71.38,0.1
329,71.1,0.1
330,70.81,0.1
331,70.59,0.1
332,70.3,0.1
333,70.01,0.1
334,69.64,0.1
335,69.42,0.1
336,69.11,0.1
337,68.8,0.1
338,68.48,0.1
339,68.24,0.1
340,67.93,0.0
341,67.64,0.0
342,67.27,0.0
343,67.06,0.0
344,66.65,0.0
345,66.37,0.0
346,66.1,0.0
347,65.82,0.0
348,65.55,0.0
349,65.3,0.0
350,65.05,0.0
351,64.82,0.0
352,64.65,0.0
353,64.39,0.1
354,64.2,0.1
355,64.07,0.1
356,63.93,0.1
357,63.77,0.1
358,63.66,0.1
359,63.56,0.1
360,63.48,0.1
361,63.42,0.1
362,63.37,0.1
363,63.34,0.2
364,63.31,0.2
365,63.28,0.2
366,63.24,0.2
367,63.21,0.2
368,63.16,0.2
369,63.11,0.2
370,63.05,0.2
371,62.98,0.2
372,62.86,0.2
373,62.81,0.2
374,62.72,0.1
375,62.62,0.1
376,62.51,0.1
377,62.43,0.1
378,62.31,0.1
379,62.2,0.1
380,62.09,0.1
381,61.98,0.1
382,61.88,0.1
383,61.79,0.1
384,61.7,0.1
385,61.61,0.1
386,61.53,0.1
387,61.44,0.1
388,61.36,0.1
389,61.27,0.1
390,61.16,0.1
391,61.05,0.1
392,60.92,0.1
393,60.79,0.1
394,60.63,0.1
395,60.52,0.1
396,60.39,0.1
397,60.27,0.1
398,60.18,0.1
399,60.09,0.1
400,60.02,0.1
401,59.96,0.1
402,59.91,0.1
403,59.9,0.0
404,59.93,0.0
405,19.9,0.0
406,19.9,0.0
407,19.88,0.0
408,19.85,0.0
409,19.84,0.0
410,19.83,0.0
411,19.83,0.0
412,19.83,0.0
413,19.83,0.0
414,19.83,0.0
415,19.84,0.0
416,19.85,0.0
417,19.87,0.0
418,19.89,0.0
419,19.91,0.0
