,angle,torque
0,14.44,15.6
1,14.46,16.3
2,14.5,17.1
3,14.53,17.8
4,14.56,18.9
5,14.6,19.6
6,14.63,20.7
7,14.66,21.4
8,14.68,22.3
9,14.71,22.9
10,14.73,23.8
11,14.75,24.5
12,14.79,25.6
13,14.81,26.4
14,14.83,27.2
15,14.85,28.2
16,14.87,28.8
17,14.89,29.3
18,14.91,29.9
19,14.93,30.7
20,14.94,31.4
21,14.96,32.0
22,14.97,32.7
23,14.99,33.3
24,15.0,33.6
25,15.01,33.9
26,15.02,34.3
27,15.04,34.7
28,15.05,35.3
29,15.07,35.7
30,15.08,36.1
31,15.09,36.5
32,15.1,36.9
33,15.12,37.4
34,15.13,37.8
35,15.14,38.2
36,15.15,38.4
37,15.15,38.3
38,15.15,38.3
39,15.15,38.2
40,15.15,38.0
41,15.15,37.8
42,15.15,37.8
43,15.15,38.0
44,15.16,38.3
45,15.16,38.5
46,15.16,38.5
47,15.16,38.5
48,15.16,38.7
49,15.16,38.7
50,15.16,38.9
51,15.16,39.0
52,15.16,38.9
53,15.16,38.8
54,15.17,38.9
55,15.17,39.0
56,15.18,39.3
57,15.18,39.4
58,15.18,39.3
59,15.18,39.2
60,15.18,39.2
61,15.18,39.3
62,15.19,39.4
63,15.19,39.6
64,15.19,39.8
65,15.2,40.1
66,15.21,40.5
67,15.21,40.7
68,15.22,40.8
69,15.22,40.8
70,15.22,40.7
71,15.22,40.7
72,15.22,40.8
73,15.23,41.2
74,15.24,41.4
75,15.25,41.7
76,15.25,42.0
77,15.26,42.2
78,15.27,42.4
79,15.29,42.6
80,15.3,42.9
81,15.32,43.5
82,15.34,44.0
83,15.37,44.8
84,15.4,45.7
85,15.41,46.2
86,15.43,46.7
87,15.45,47.3
88,15.46,47.7
89,15.48,48.2
90,15.5,48.8
91,15.51,49.2
92,15.52,49.6
93,15.54,50.2
94,15.55,50.6
95,15.57,51.1
96,15.58,51.6
97,15.59,52.1
98,15.61,52.7
99,15.63,53.2
100,15.65,53.9
101,15.66,54.5
102,15.69,55.4
103,15.71,56.0
104,15.72,56.6
105,15.74,57.2
106,15.76,57.8
107,15.77,58.2
108,15.79,58.6
109,15.8,59.1
110,15.81,59.7
111,15.83,60.1
112,15.83,60.4
113,15.84,60.8
114,15.85,61.1
115,15.87,61.6
116,15.88,61.8
117,15.89,62.2
118,15.9,62.6
119,15.97,61.2
120,16.05,59.3
121,16.16,59.3
122,16.25,59.5
123,16.38,59.7
124,16.5,60.1
125,16.6,60.4
126,16.69,60.8
127,16.75,61.0
128,16.79,61.2
129,16.82,61.4
130,16.85,61.8
131,16.87,62.1
132,16.9,62.4
133,16.95,63.4
134,16.98,63.9
135,17.03,64.3
136,17.08,64.6
137,17.14,64.7
138,17.21,65.0
139,17.25,65.2
140,17.31,65.4
141,17.36,65.6
142,17.41,65.9
143,17.45,66.0
144,17.48,66.2
145,17.51,66.5
146,17.54,66.7
147,17.56,66.9
148,17.58,67.1
149,17.6,67.3
150,17.61,67.6
151,17.63,67.9
152,17.65,68.2
153,17.67,68.6
154,17.69,68.9
155,17.71,69.0
156,17.73,69.2
157,17.74,69.4
158,17.76,69.7
159,17.78,69.9
160,17.8,69.9
161,17.8,69.7
162,17.81,69.6
163,17.82,69.6
164,17.83,69.8
165,17.84,70.0
166,17.84,69.9
167,17.84,69.3
168,17.83,68.7
169,17.83,67.9
170,17.82,67.3
171,17.8,66.5
172,17.78,64.6
173,17.75,62.9
174,17.71,60.3
175,17.63,54.4
176,17.57,51.2
177,17.52,46.7
178,17.45,43.3
179,17.4,40.9
180,17.34,37.6
181,17.29,35.7
182,17.22,32.4
183,17.12,29.3
184,17.06,27.1
185,16.98,24.9
186,16.89,21.8
187,16.79,19.8
188,16.67,16.4
189,16.55,14.0
190,16.47,12.3
191,16.38,10.9
192,16.28,8.9
193,16.21,7.5
194,16.07,6.1
195,15.98,4.9
196,15.89,4.1
197,15.82,3.3
198,15.73,2.4
199,15.63,1.7
200,15.57,1.4
201,15.48,1.0
202,15.38,0.7
203,15.31,0.6
204,15.21,0.5
205,15.1,0.4
206,15.0,0.3
207,14.79,0.3
208,14.63,0.3
209,14.45,0.3
210,14.31,0.3
211,14.1,0.3
212,13.88,0.3
213,13.64,0.2
214,13.38,0.2
215,13.11,0.2
216,12.84,0.1
217,12.55,0.1
218,12.26,0.1
219,11.97,0.1
220,11.74,0.1
221,11.45,0.1
222,11.15,0.1
223,10.86,0.1
224,7.22,0.1
225,7.04,0.1
226,6.86,0.1
227,6.67,0.1
228,6.49,0.1
229,6.32,0.2
230,6.11,0.2
231,5.98,0.2
232,5.81,0.2
233,5.68,0.2
234,5.51,0.3
235,5.34,0.3
236,5.04,0.3
237,4.88,0.3
238,4.67,0.2
239,4.46,0.2
240,4.19,0.2
241,4.03,0.2
242,3.81,0.2
243,3.59,0.2
244,3.36,0.3
245,3.13,0.3
246,2.89,0.3
247,2.66,0.3
248,2.48,0.3
249,2.22,0.3
250,1.9,0.3
251,1.63,0.3
252,1.37,0.3
253,1.1,0.3
254,0.84,0.3
255,0.56,0.3
256,0.36,0.2
257,0.1,0.2
258,0.17,0.2
259,0.44,0.2
260,0.78,0.2
261,0.98,0.2
262,1.32,0.2
263,1.59,0.2
264,1.85,0.2
265,2.25,0.2
266,2.51,0.2
267,2.77,0.2
268,3.02,0.2
269,3.27,0.2
270,3.52,0.2
271,3.71,0.2
272,3.95,0.2
273,4.2,0.3
274,4.43,0.3
275,4.66,0.3
276,4.89,0.3
277,5.11,0.3
278,5.33,0.3
279,5.53,0.3
280,5.74,0.3
281,5.93,0.3
282,6.12,0.3
283,6.25,0.3
284,6.42,0.3
285,6.59,0.3
286,6.8,0.3
287,6.97,0.3
288,7.14,0.3
289,7.27,0.3
290,7.48,0.3
291,7.61,0.3
292,7.79,0.3
293,7.97,0.3
294,8.15,0.3
295,8.33,0.3
296,8.52,0.3
297,8.81,0.3
298,9.06,0.3
299,9.2,0.3
300,9.38,0.3
301,9.54,0.3
302,9.73,0.3
303,9.83,0.3
304,8.34,0.3
305,8.34,0.3
306,8.35,0.3
307,8.36,0.3
308,8.36,0.3
309,8.37,0.3
310,8.38,0.3
311,8.4,0.3
312,8.41,0.3
313,8.43,0.3
314,8.44,0.3
315,8.45,0.3
316,8.54,0.3
317,8.54,0.3
318,8.54,0.3
319,8.56,0.3
320,8.62,0.3
321,8.61,0.3
322,8.61,0.3
323,8.61,0.3
324,8.61,0.3
325,8.61,0.3
326,8.6,0.3
327,8.6,0.3
328,8.6,0.3
329,8.6,0.3
330,8.6,0.3
331,8.6,0.3
332,8.6,0.3
333,8.6,0.3
334,8.6,0.3
335,8.61,0.3
336,8.61,0.3
337,8.61,0.3
